<?xml version="1.0" encoding="UTF-8"?>
<xrdMeasurements xmlns="http://www.panalytical.com/XRDML/1.0" version="1.0">
  <comment>
    <entry>Synthesized experimental powder XRD pattern of Ni FCC with Caglioti broadening and curved background.</entry>
  </comment>
  <sample>
    <id>Ni-FCC-Powder</id>
    <name>Nickel FCC standard</name>
  </sample>
  <xrdMeasurement measurementType="Scan">
    <usedWavelength>
      <kAlpha1 unit="Angstrom">1.540598</kAlpha1>
      <kAlpha2 unit="Angstrom">1.544426</kAlpha2>
      <ratioKAlpha2KAlpha1>0.5</ratioKAlpha2KAlpha1>
    </usedWavelength>
    <scan scanAxis="2Theta" status="Completed">
      <header>
        <startTimeStamp>2026-09-06T10:00:00</startTimeStamp>
        <author>
          <name>PyTex Synthetic Measurement Generator</name>
        </author>
      </header>
      <dataPoints>
        <positions axis="2Theta" unit="deg">
          <startPosition>20.0000</startPosition>
          <endPosition>100.0000</endPosition>
        </positions>
        <commonCountingTime unit="seconds">1.00</commonCountingTime>
        <counts unit="counts">134 131 115 112 139 112 115 128 112 140 142 147 117 124 144 120 114 116 131 123 114 120 123 117 120 115 114 140 131 123 123 97 125 112 112 125 152 133 117 111 114 133 125 118 142 107 123 129 127 121 119 130 112 107 130 115 109 127 104 120 124 109 100 124 121 121 97 121 144 141 131 125 122 120 124 139 107 111 134 109 128 108 129 131 99 123 120 115 106 123 124 128 112 113 115 119 121 96 116 120 111 126 113 91 107 108 123 119 105 120 112 100 125 113 121 102 113 120 111 121 107 136 118 99 106 120 100 111 114 130 119 102 108 111 108 129 118 127 100 119 117 104 124 115 115 111 107 113 119 113 127 118 99 109 133 120 115 128 106 105 108 108 122 122 119 111 109 119 109 125 133 114 111 110 96 109 114 106 117 109 104 128 119 106 124 112 100 116 118 114 109 114 130 98 107 111 103 121 101 92 114 100 118 102 121 101 116 114 98 105 129 111 119 111 121 145 89 121 106 102 113 110 108 91 118 122 122 102 91 109 94 115 107 110 92 127 112 98 102 107 123 106 101 132 93 118 107 105 112 111 112 107 123 115 107 101 94 97 105 107 119 104 113 122 98 86 124 85 104 110 114 107 95 105 96 113 87 101 122 89 89 114 98 116 95 104 124 99 111 102 112 106 110 105 108 96 87 98 85 89 103 94 99 108 99 92 89 127 105 109 101 96 111 104 96 114 93 111 110 119 106 109 99 94 113 114 101 112 122 109 96 132 102 115 100 100 97 90 106 108 113 114 124 108 106 89 119 110 102 99 104 101 108 110 104 84 120 92 75 104 116 106 111 99 100 105 84 95 106 112 121 105 107 112 97 92 114 98 114 95 92 102 83 93 137 97 102 106 99 105 87 89 115 94 92 111 93 109 114 79 92 81 104 106 106 102 106 107 106 98 111 103 104 110 98 92 107 103 106 95 97 116 102 102 86 110 104 110 95 90 126 98 116 101 117 101 78 97 102 88 99 99 70 92 104 98 94 95 115 130 111 93 103 90 111 105 103 105 95 100 96 95 101 105 88 112 105 100 108 114 93 110 90 110 92 105 92 115 103 117 101 97 99 103 101 92 94 77 99 106 112 94 105 97 95 100 104 88 91 102 98 91 101 92 100 76 83 86 112 90 79 99 107 94 91 100 65 85 121 81 103 94 99 94 91 109 84 78 91 88 80 88 101 98 92 97 107 110 97 109 97 88 95 92 93 106 99 72 91 98 96 90 87 92 89 88 120 106 100 104 100 88 93 117 101 100 91 81 78 85 76 93 90 82 106 101 64 77 90 103 86 101 98 99 90 102 88 96 94 101 95 89 101 114 95 82 94 93 96 87 106 99 99 90 77 100 111 88 91 88 95 98 80 83 95 89 91 80 96 96 98 92 82 91 104 83 83 78 87 88 90 74 82 87 93 90 101 84 103 98 98 85 95 92 106 109 78 92 91 89 85 96 101 86 83 103 85 92 107 90 78 107 95 79 96 95 91 77 92 93 86 83 85 86 91 95 76 104 81 90 92 90 107 118 107 75 96 88 84 91 97 91 88 92 94 96 75 105 74 100 99 98 109 96 97 94 97 99 88 93 72 86 96 90 96 91 107 91 95 83 91 85 83 84 90 99 71 87 95 95 84 101 82 92 105 113 108 113 93 96 100 93 81 99 74 81 102 88 91 98 96 80 96 94 88 97 94 101 85 98 95 97 96 75 85 89 91 90 76 94 94 79 77 86 91 103 89 103 91 93 95 92 90 86 97 92 81 94 92 89 93 86 73 81 96 98 78 86 82 87 105 93 82 94 88 91 97 86 86 88 93 83 97 97 92 108 95 95 79 97 84 95 103 81 74 94 87 103 83 94 83 70 95 105 102 97 87 98 101 92 86 84 86 89 92 80 75 80 103 75 105 85 90 90 84 96 79 103 93 85 93 81 87 92 97 91 121 83 101 70 87 98 82 93 81 101 77 98 83 81 80 83 85 93 100 88 89 76 105 102 74 79 103 87 71 92 70 86 92 91 103 94 93 101 78 82 91 82 98 94 83 107 88 85 78 99 107 83 98 78 84 94 92 83 86 93 86 87 100 88 99 80 90 84 97 86 78 96 99 105 98 87 93 99 91 94 96 84 75 84 63 106 85 81 91 100 99 87 84 87 76 91 98 92 88 94 90 80 89 97 104 68 92 87 86 106 105 93 79 85 95 78 91 93 92 82 72 79 90 82 102 84 91 83 102 95 80 110 92 80 76 105 91 79 90 87 84 98 98 91 87 83 90 103 96 93 98 80 99 97 79 99 99 74 87 93 73 91 97 96 95 93 87 84 92 78 99 77 81 94 94 88 108 90 78 81 91 96 110 109 95 77 80 84 90 91 87 76 76 96 88 84 102 83 103 72 88 97 70 95 94 93 98 95 81 100 95 96 90 103 84 76 98 74 96 98 88 86 109 84 89 111 87 85 97 83 88 90 90 76 94 87 88 81 98 78 99 82 100 87 92 84 82 91 84 78 96 79 95 104 100 67 86 98 95 104 104 84 96 98 110 106 98 123 91 92 91 95 92 101 83 84 91 106 94 87 110 95 88 110 94 102 116 85 112 91 115 97 124 86 107 84 92 90 93 89 70 108 91 77 89 112 88 107 100 108 111 94 111 119 105 100 96 119 101 97 116 133 125 130 127 135 136 125 129 143 156 142 141 150 151 152 171 177 187 162 200 200 214 231 239 272 292 346 367 407 536 626 808 1026 1597 2688 4724 7808 10948 12137 9891 7166 5729 5910 6703 6369 4751 3165 1871 1151 776 633 534 448 374 359 308 236 229 232 201 172 207 177 171 171 143 149 141 128 113 139 136 133 139 112 118 131 126 124 117 108 115 112 113 119 96 92 122 91 114 113 107 106 107 106 111 76 93 92 107 80 91 95 106 107 93 89 100 99 88 103 91 86 89 86 105 98 79 101 79 95 84 86 94 95 92 91 92 102 89 89 97 84 85 103 104 87 103 88 99 89 92 91 105 94 98 91 99 95 108 94 99 84 107 81 93 82 80 91 100 100 92 94 95 91 94 106 96 82 83 94 100 83 97 84 82 100 92 90 91 80 87 77 82 93 73 88 90 80 84 67 94 95 93 96 91 92 101 92 81 104 86 92 89 87 95 102 107 80 88 89 78 91 88 97 94 86 97 98 87 100 74 85 125 99 101 91 97 95 87 85 85 96 90 99 106 92 86 87 77 83 92 94 108 112 100 82 90 101 83 97 95 72 92 100 104 91 106 97 81 84 93 86 103 101 97 100 76 94 81 91 101 90 96 86 81 91 86 95 102 83 101 79 87 78 100 89 94 102 86 95 107 82 89 79 85 110 82 91 88 102 90 94 89 80 102 90 116 84 96 88 90 88 70 95 86 95 100 84 102 85 100 89 87 86 77 79 95 85 76 79 84 88 113 94 92 70 100 88 89 113 84 105 96 90 101 87 97 94 84 83 87 97 87 108 106 94 112 97 99 102 100 105 102 91 103 97 84 109 104 88 117 110 108 112 121 125 127 122 108 124 123 142 120 133 150 134 156 130 153 183 195 187 220 222 240 306 320 421 458 697 1032 1663 2996 4881 6256 6074 4668 3222 2332 2342 2943 3475 3213 2377 1442 902 530 437 310 269 260 232 200 179 192 160 152 172 160 130 144 143 120 114 131 118 112 130 123 115 93 117 93 85 113 112 102 107 93 109 102 98 95 103 93 88 116 111 104 95 93 94 97 91 99 96 115 85 86 94 101 121 75 92 94 97 88 103 99 77 103 92 78 101 79 95 98 99 89 86 88 103 102 89 99 112 91 117 112 88 87 102 83 88 104 88 67 96 73 80 97 93 88 80 96 85 82 82 74 102 86 89 95 71 82 94 86 88 91 86 90 82 89 94 84 113 82 78 82 84 80 104 95 105 72 92 84 77 87 108 91 90 69 90 94 78 104 112 83 85 100 88 100 88 93 86 103 81 70 89 76 105 85 105 92 92 76 91 68 88 96 79 85 76 100 79 81 76 93 77 94 79 92 96 81 81 100 94 92 95 86 93 100 90 93 102 105 94 102 87 86 94 88 92 110 94 94 102 96 91 87 77 79 99 79 91 105 88 81 94 92 85 89 87 86 87 102 74 77 96 89 99 93 90 90 103 90 96 94 92 97 96 101 114 108 86 105 105 90 85 91 85 92 89 92 87 89 82 83 74 110 99 94 91 105 77 105 88 82 90 96 86 95 81 96 106 109 91 86 105 107 104 101 91 96 86 91 85 89 86 98 104 83 99 97 75 111 80 89 94 88 104 78 100 83 93 104 88 88 78 87 80 94 89 107 104 97 90 80 100 95 78 98 90 89 84 73 87 90 102 76 93 96 77 99 90 91 86 72 92 106 97 84 85 98 89 92 94 87 79 91 92 98 73 89 98 95 93 109 87 104 87 85 94 87 99 91 85 79 76 93 101 112 93 94 98 96 94 102 82 93 83 85 83 115 94 89 93 91 72 109 95 101 84 104 96 84 104 101 84 87 86 82 82 94 95 68 89 83 81 95 89 104 98 92 89 106 84 117 94 86 99 100 103 101 95 85 83 98 110 101 100 86 94 85 91 88 110 106 99 82 85 90 77 75 81 93 100 101 96 89 99 91 101 85 79 86 86 104 95 87 104 92 110 99 102 86 91 77 92 88 80 96 97 93 88 101 87 104 102 99 86 88 94 102 89 81 99 66 97 105 102 103 82 95 97 94 101 94 121 92 94 91 101 99 85 92 91 101 87 111 92 110 107 91 99 103 113 100 109 79 109 88 90 82 106 92 106 90 99 91 97 102 91 86 99 108 86 98 90 90 94 98 110 84 89 105 105 77 111 102 96 110 97 105 86 87 85 92 90 83 102 90 99 91 79 96 89 87 87 92 100 88 95 84 93 93 79 103 98 97 94 107 87 86 110 100 93 91 90 104 105 96 94 101 95 91 108 99 104 102 96 118 95 108 101 94 116 84 85 111 94 95 98 97 115 108 108 90 83 116 84 88 87 98 93 100 89 101 107 112 94 92 95 102 71 111 105 95 105 83 106 106 91 94 90 100 100 91 96 102 94 94 97 94 76 101 82 94 88 133 100 98 115 98 89 91 95 97 94 91 90 75 107 106 94 92 92 95 89 102 99 107 94 115 98 92 81 95 78 110 98 121 90 98 103 104 112 84 76 98 95 89 88 97 95 103 109 92 93 119 104 73 97 98 111 124 101 98 95 123 88 88 92 128 93 86 104 102 104 99 109 93 98 96 88 88 111 108 113 86 109 113 98 103 111 98 101 117 95 79 103 85 116 115 122 90 111 94 83 87 110 96 120 119 103 113 93 97 111 93 98 101 82 105 102 105 105 99 107 103 98 99 89 100 80 108 96 109 102 87 97 106 106 96 105 91 90 102 90 107 98 93 111 97 87 103 109 110 89 115 92 90 107 94 109 110 98 113 112 111 106 88 103 127 97 106 100 112 97 91 85 97 97 102 109 76 101 85 105 84 107 94 110 104 114 99 102 111 119 87 104 115 97 108 106 125 91 114 99 102 89 112 107 114 106 93 95 96 96 87 96 90 88 94 82 125 101 105 106 98 96 95 109 111 129 108 100 97 102 105 101 100 103 101 104 112 123 91 104 89 82 92 110 105 113 111 98 114 112 121 94 116 102 106 117 91 89 91 107 103 108 105 107 95 114 89 99 113 97 107 107 102 108 112 103 95 98 120 99 86 95 92 90 99 108 104 109 102 120 102 86 112 91 100 86 97 106 100 98 102 106 92 104 81 101 83 97 102 120 111 136 100 103 83 112 100 106 105 104 101 89 113 111 89 83 107 104 110 111 100 115 104 83 100 124 108 90 76 92 92 118 113 116 126 117 104 100 104 111 105 114 104 110 119 95 105 109 103 96 108 117 97 98 91 111 109 96 96 105 103 80 97 109 98 115 107 91 111 97 91 117 123 94 94 99 90 99 118 111 109 101 113 111 98 100 106 112 92 108 113 94 112 91 96 96 96 93 113 120 108 121 98 99 110 114 101 105 98 127 110 118 104 108 106 115 120 79 97 113 109 94 112 113 110 100 101 110 108 105 106 107 110 119 127 105 125 118 105 109 99 107 110 128 107 108 94 105 94 102 106 118 127 114 117 97 117 115 112 102 102 110 101 103 110 106 95 118 97 105 141 109 105 111 100 132 116 123 104 102 115 115 113 119 117 103 108 108 129 115 97 101 90 121 123 139 103 121 118 121 108 121 101 122 129 126 109 118 122 128 121 111 128 123 113 129 131 120 116 110 100 132 137 131 107 130 147 140 139 132 137 143 174 155 155 189 156 192 246 233 253 291 324 330 402 529 725 1204 2069 3262 4439 5161 4459 3095 2028 1284 928 792 871 1140 1701 2340 2693 2512 1826 1193 725 504 346 293 272 249 240 185 204 191 175 175 162 159 154 149 143 141 142 147 129 126 135 125 122 128 118 120 126 128 114 123 127 119 106 129 117 91 117 136 126 119 117 129 108 138 123 115 116 114 116 115 111 121 107 117 123 118 107 109 117 121 121 119 126 110 112 113 142 106 118 87 118 118 123 128 105 113 109 113 105 108 101 134 115 122 113 141 127 113 135 119 114 139 125 122 124 109 142 94 113 127 110 117 127 118 117 110 110 135 119 115 135 100 122 116 103 86 117 107 112 97 107 103 104 96 135 110 103 113 121 117 125 103 111 92 132 117 102 93 105 125 129 117 116 126 94 140 125 116 133 114 125 129 113 107 103 140 108 110 118 100 125 114 121 107 104 122 115 110 109 95 129 115 117 122 122 124 115 118 121 107 103 109 114 127 110 111 125 131 130 126 136 133 144 113 105 116 107 115 120 108 132 121 131 116 117 104 111 116 121 96 116 118 132 120 127 137 98 107 118 120 112 111 103 101 108 113 135 118 101 102 127 104 144 111 114 120 147 100 111 109 97 112 108 111 137 101 119 123 118 124 115 123 108 111 137 114 105 130 112 103 96 102 131 119 114 109 112 128 126 124 133 119 131 102 99 115 128 113 126 115 130 118 113 129 120 110 110 124 106 121 123 126 123 116 105 126 107 141 122 94 95 130 115 116 106 128 111 106 132 133 120 131 112 124 136 115 128 115 114 105 114 105 139 103 115 115 125 115 124 131 143 132 111 124 115 117 113 118 127 115 120 125 103 118 119 105 122 122 122 127 105 139 133 111 123 106 114 126 121 118 121 116 122 134 105 105 119 116 110 98 99 120 132 119 135 126 126 138 125 117 111 119 129 118 98 114 113 102 129 136 109 119 115 132 131 134 112 127 122 119 137 118 131 128 143 130 102 128 121 129 122 124 106 124 135 117 126 114 110 117 136 111 131 118 130 127 122 117 110 100 133 127 130 121 111 135 117 140 124 111 119 118 140 110 139 146 109 129 135 139 122 103 115 124 139 126 137 121 143 131 108 130 129 113 122 120 130 124 136 119 124 130 129 103 116 130 116 136 117 119 129 110 136 123 131 110 132 137 117 115 114 140 125 127 130 142 130 136 122 125 106 133 155 120 120 110 127 135 117 123 132 128 110 111 134 135 117 132 136 129 127 118 121 157 116 118 135 118 142 137 130 115 131 116 141 141 127 138 102 125 129 118 125 107 148 120 129 130 128 121 124 137 124 127 114 136 130 144 115 140 124 131 147 123 141 108 126 127 146 139 110 158 110 129 127 99 136 130 126 121 132 125 107 122 128 118 120 132 122 121 123 135 120 144 132 116 116 146 128 115 151 135 122 125 108 127 143 137 121 123 139 145 139 138 131 108 134 126 133 111 129 139 134 95 108 106 112 122 133 130 153 134 144 135 128 131 103 130 130 124 138 157 135 112 122 128 144 135 124 129 121 125 144 107 107 115 133 133 120 136 131 134 133 117 118 145 126 135 137 134 116 129 127 127 139 112 124 112 142 126 149 144 140 139 133 137 142 150 131 130 138 136 127 115 131 145 137 158 130 139 134 150 130 151 135 128 116 142 127 143 130 131 146 157 123 142 151 121 120 125 120 135 130 112 134 113 135 140 134 138 122 151 146 122 143 125 151 135 126 126 126 131 148 143 128 142 106 109 136 147 137 130 129 152 138 140 149 142 137 146 148 140 160 146 129 160 146 151 147 146 144 153 150 136 157 154 146 159 174 166 151 179 173 154 162 180 186 173 205 217 195 208 236 228 221 267 257 266 308 331 331 398 464 575 707 949 1458 2358 3802 5342 7027 7426 6062 4572 2869 1858 1260 922 822 787 819 1020 1404 2006 2937 3661 3720 3216 2301 1573 987 687 490 408 346 310 306 292 240 230 233 205 198 222 198 180 176 165 173 164 166 183 169 160 190 167 164 164 148 161 166 177 170 175 167 138 161 159 145 167 152 161 133 153 138 146 163 128 137 135 161 141 139 155 114 133 164 145 129 163 162 150 139 161 124 147 112 152 141 145 132 141 132 140 135 160 128 127 161 141 158 137 143 126 136 154 144 133 147 144 125 113 146 140 152 141 149 145 150 123 144 156 157 136 155 144 155 133 141 130 135 143 144 164 147 142 141 145 140 144 141 141 151 144 151 158 138 135 140 151 142 140 134 139 175 151 145 158 123 158 151 148 154 134 131 140 137 137 136 138 136 126 123 128 139 149 160 141 138 168 138 150 144 137 126 142 158 129 152 141 142 144 145 125 120 127 183 158 157 145 145 167 166 153 138 126 136 152 137 167 135 140 127 133 156 141 155 123 138 171 164 154 143 134 150 137 151 147 124 154 163 143 144 142 170 146 170 153 158 180 138 162 130 159 164 151 157 131 153 159 160 175 144 181 170 162 197 168 176 145 190 186 203 186 200 218 235 235 296 306 411 521 811 1206 1672 2176 2385 2168 1666 1178 763 531 424 362 312 325 315 342 467 604 745 1112 1286 1200 1125 794 624 366 322 270 229 211 172 214 203 201 173 165 183 170 174 157 149 161 155 149 148 170 142 167 145 151 151 135 146 140 165 167 164 144 151 140 136 132 147 122 147 160 159 141 151 160 146 155 170 147 177 151 141 138 145 138 149 160 161</counts>
      </dataPoints>
    </scan>
  </xrdMeasurement>
</xrdMeasurements>
